Time (s),Velocity (m/s),Torque Commanded (Nm),Brake Commanded (N),Pack Voltage (V),Discharge (Wh),Base Speed (m/s),Kv,Motor Power (W),Iq Current (A)
0.014080346233513829,17.755245208740234,141.35395313975303,0.0,587.9944490075493,0.12992632550705333,40.498832940739966,9.140340002461777,33218.98226565599,164.51810188518743
0.028112179499295842,17.816631317138672,140.86465191757713,0.0,587.9889189500196,0.25940290688986156,40.49853816988715,9.140359439085202,33218.44581169432,163.948617222506
0.04209623725522969,17.877500534057617,140.37947077467072,0.0,587.9834096721229,0.3884335311437537,40.49837013435349,9.14040715697548,33217.12877772591,163.38392781037095
0.05603323939407551,17.9378604888916,139.8983488980557,0.0,587.9779210203125,0.5170219293674488,40.49832566794685,9.140482444699128,33215.05076870419,162.82396287017656
0.06992388868273505,17.997718811035156,139.42122547475387,0.0,587.9724528428004,0.6451717767630559,40.498401691118765,9.140584610318651,33212.23083508611,162.26865162331688
0.08376887118637502,18.057083129882812,138.9480396917871,0.0,587.9670049895751,0.772886692636074,40.498595209879205,9.140712981148557,33208.687480969114,161.7179232911861
0.09756885667802846,18.1159610748291,138.47873073617725,0.0,587.9615773124185,0.9001702403953921,40.498903314715825,9.14086690351232,33204.438672104974,161.17170709517836
0.11132450047788234,18.174358367919922,138.0306133736141,0.0,587.9561688552984,1.0270418984196124,40.498652849929414,9.140894455931218,33203.67810716684,160.6501552299978
0.1250364366266582,18.232290267944336,137.6029322356698,0.0,587.9507786970277,1.1535204507859609,40.497859317615415,9.140799148225177,33206.30898354239,160.15238854244626
0.1387052784000536,18.289772033691406,137.17922678728226,0.0,587.9454066826723,1.2796095517731048,40.49714900328382,9.14072234004931,33208.42914702656,159.65924905409946
0.15233162588771657,18.34680938720703,46.77416230083067,0.0,587.9433091268081,1.322602300836225,43.61313655214858,9.844075537748408,11358.428718140522,54.43920193299659
0.16591606348171897,18.403411865234375,136.35415323321925,0.0,587.9379713967462,1.4479330305661713,40.495776775016004,9.140528203765758,33213.78775570429,158.69896791575798
0.17945916303835893,18.459585189819336,135.94631098345909,0.0,587.9326511614184,1.5728888896701403,40.49513230219785,9.140465448035275,33215.51989579358,158.2242911818658
0.19296148416186018,18.515335083007812,135.54154302589436,0.0,587.9273483049178,1.697472703902061,40.494587369707965,9.14042488919349,33216.639356494234,157.75319253479324
0.2064235744792246,18.570667266845703,135.13980781603587,0.0,587.9220627125629,1.8216872608299988,40.49413978184204,9.140406034009466,33217.15977226652,157.2856236220157
0.21984596990656577,18.625587463378906,134.74106380939455,0.0,587.9167942709066,1.945535309836155,40.493787396606116,9.140408401335165,33217.09443263519,156.82153609100857
0.23322919490723712,18.68010139465332,134.34526946148122,0.0,587.9115428677454,2.0690195621168668,40.493528125112164,9.140431521969592,33216.45628675177,156.36088158924724
0.2465737641006793,18.73421287536621,133.95239707596986,0.0,587.906308391586,2.1921427034112293,40.49335992256733,9.140474936633822,33215.25800005028,155.90362788171538
0.25988018112313094,18.787927627563477,133.56240510837125,0.0,587.9010907321962,2.3149073812724734,40.49328079497379,9.140538197475404,33213.51191344604,155.44972661588832
0.2731489402068585,18.841249465942383,133.17526586235942,0.0,587.8958897800705,2.4373162177965875,40.493288785075535,9.1406208649051,33211.230131326876,154.9991455567498
0.2863805237075568,18.89418601989746,132.79092394528215,0.0,587.890705427526,2.5593717841650743,40.49338200961487,9.140722515990415,33208.42429051386,154.55182023426693
0.29957540634163676,18.946739196777344,132.40936550897635,0.0,587.88553756708,2.681076638830816,40.49355858540028,9.140842727792577,33205.10602080229,154.1077345309315
0.31273405270130916,18.99891471862793,132.03844403784183,0.0,587.8803857262077,2.80244055882352,40.49349807709645,9.140909173802253,33203.27182838076,153.6760289081027
0.3258569148372684,19.050722122192383,131.68689314847134,0.0,587.8752490269202,2.9234813487284548,40.49283994237855,9.140840477545634,33205.16813658597,153.26686818956162
0.33894443121263984,19.1021728515625,131.33776255275788,0.0,587.8701273773291,3.0442012331729082,40.49226151399497,9.140789539119966,33206.5742296119,152.86052438635696
0.3519970321827817,19.153270721435547,130.9956002290826,0.0,587.8650204741988,3.164606617085508,40.49157509535316,9.140713992403548,33208.65956730825,152.46229076941646
0.36501513886427495,19.204021453857422,130.65860840332778,0.0,587.8599280972932,3.2847022529601246,40.49084937623756,9.140629346598812,33210.996017051286,152.07007495731818
0.3779991633194758,19.254430770874023,130.32388362270265,0.0,587.8548501605442,3.404490224564752,40.4901990983565,9.140561505468447,33212.86857280406,151.68049769867628
0.3909495100153303,19.304502487182617,129.99140055709398,0.0,587.8497865786319,3.5239725923850616,40.4896227869889,9.140510137862107,33214.28640136748,151.29352951244644
0.40386657469831616,19.3542423248291,129.66112121133202,0.0,587.8447372674817,3.6431513819832375,40.48911899307408,9.140474918389076,33215.258503625984,150.9091261770624
0.416750747097256,19.40365219116211,129.3330329203602,0.0,587.8397021432846,3.7620286072803024,40.488686312099766,9.140455531697885,33215.79359685115,150.5272729520021
0.4296024097771932,19.452735900878906,129.00711035406533,0.0,587.834681122994,3.880606258914955,40.48832335922256,9.140451666852444,33215.90027033259,150.14794035622128
0.4424219382757331,19.501497268676758,128.68332818233418,0.0,587.8296741243299,3.99888630424357,40.48802877899002,9.140463019527074,33215.58692517528,149.77109890867573
0.45520970123576776,19.54994010925293,128.36166107505366,0.0,587.8246810657844,4.116870687340199,40.48780124504897,9.140489291940952,33214.86177647384,149.3967191283213
0.4679660605346974,19.598068237304688,128.04208370211052,0.0,587.8197018666256,4.234561328996567,40.487639459854755,9.140530192792792,33213.73285546104,149.02477153411374
0.48069137141025964,19.645885467529297,127.7245707333916,0.0,587.814736446903,4.351960126722078,40.487542154381885,9.140585437195785,33212.20801163094,148.65522664500887
0.4933859838125721,19.69339370727539,127.40910950384031,0.0,587.8097847269578,4.469068966384974,40.48750807419913,9.140654743541834,33210.29499960364,148.28806972048454
0.5060502412763698,19.740596771240234,127.09567468334346,0.0,587.8048466279209,4.58588971057117,40.487535998804844,9.140737837859287,33208.001359141024,147.9232712794966
0.5186844810377504,19.787498474121094,29.46927111251053,0.0,587.8035521311489,4.612976566127549,44.04585378461677,9.944109440434541,7718.128027064447,34.29849989817334
0.5312890341479127,19.834102630615234,126.47989364367368,0.0,587.7986397573578,4.729231311514107,40.4878077944495,9.14089572270556,33203.64313861968,147.20658012531854
0.5438642255839802,19.880413055419922,126.18883304329327,0.0,587.79374001626,4.845218526821263,40.48731965376189,9.140861711540332,33204.58199214018,146.86782244331155
0.5564103707542666,19.92643928527832,125.8995586055758,0.0,587.7888528390242,4.960939853811036,40.48689003146222,9.14084071628829,33205.16154633908,146.53114362846347
0.5689277804511335,19.972183227539062,125.6143370033962,0.0,587.7839780519696,5.07639901767128,40.486421214941565,9.140810678938854,33205.9906931795,146.19918180097324
0.5814167585506386,20.017650604248047,125.33660666093844,0.0,587.7791153224587,5.1916029040378575,40.485763785241105,9.14073786913826,33208.000495741995,145.87593885118534
0.5938776033178054,20.06284523010254,125.06054237431472,0.0,587.7742645864928,5.306553044275883,40.48516227112152,9.140677496151099,33209.666967946774,145.5546349794166
0.6063106086823087,20.107769012451172,124.7861324927849,0.0,587.7694257803865,5.421250959041623,40.484615702176846,9.14062934218082,33210.99613899822,145.23525662568076
0.6187160631374192,20.15242576599121,116.33656752605538,0.0,587.7649603870049,5.528182405987571,40.83022468900398,9.218731084984494,31030.963871446806,135.40103296794155
0.6310964549060909,20.193222045898438,101.33314817568882,0.0,587.7610803897874,5.621323370934708,41.43647956675133,9.355674302373556,27083.7530891537,117.93895271844602
0.6434559860789894,20.227304458618164,83.9279622305952,0.0,587.7577674364614,5.698466255853781,42.112908403435476,9.508454382626573,22469.653729068927,97.68152028700558
0.6557994328418482,20.253662109375,123.89496738268365,0.0,587.7529676071242,5.8123450509160834,40.483150611580285,9.140554498875389,33213.061967250906,144.19805328524635
0.668131277946377,20.272716522216797,123.77857648910394,0.0,587.7481735869694,5.926116864597326,40.48281789047159,9.140553930026108,33213.07766848736,144.06258902363123
0.6804542188751969,20.287364959716797,123.68909880515076,0.0,587.7433843314362,6.039806434333968,40.482492484723934,9.140554938806119,33213.049824390444,143.95844833001718
0.6927705340838616,20.29827880859375,123.62243327030963,0.0,587.7385989550332,6.153434728048346,40.482169826202174,9.140556507576106,33213.00652357273,143.8808580892803
0.7050825455842903,20.305374145507812,123.5790925171448,0.0,587.7338165528411,6.267023184852058,40.481846599194945,9.140557901755491,33212.96804174733,143.83041494081098
0.7174029289419218,20.291576385498047,0.0,0.0,587.7338165528411,6.267023184852058,44.90819148325737,10.14,0.0,0.0
0.7297233122995533,20.291576385498047,24.03129423840106,0.0,587.732782427862,6.289111691669319,44.18929611129205,9.977695297267609,6454.232975866354,27.96938342458224
0.7420436956571849,20.291576385498047,123.66337397101424,0.0,587.727998310995,6.40277761627189,40.48143504374187,9.140555461481913,33213.035397619045,143.92850788060318
0.7543637698152484,20.292085647583008,123.66026322340807,0.0,587.7232156110582,6.516440681612324,40.48110593280093,9.140555531727731,33213.03345871075,143.92488736430175
0.7666814068197335,20.296100616455078,123.6357384155016,0.0,587.7184351558348,6.6300812048299225,40.480779353665135,9.140556138744904,33213.01670396594,143.8963435934609
0.7789939237342735,20.304540634155273,123.58418389056766,0.0,587.7136579895558,6.743674341399753,40.480457327501625,9.140557722688925,33212.97298430322,143.83634065475752
0.7913362070246663,20.255571365356445,0.0,0.0,587.7136579895558,6.743674341399753,44.90665118628187,10.14,0.0,0.0
0.8037287606762207,20.173404693603516,0.0,0.0,587.7136579895558,6.743674341399753,44.90665118628187,10.14,0.0,0.0
0.8161792756924127,20.079490661621094,0.0,0.0,587.7136579895558,6.743674341399753,44.90665118628187,10.14,0.0,0.0
0.8286967033205429,19.97215461730957,0.0,0.0,587.7136579895558,6.743674341399753,44.90665118628187,10.14,0.0,0.0
0.8412901256901052,19.851633071899414,0.0,0.0,587.7136579895558,6.743674341399753,44.90665118628187,10.14,0.0,0.0
0.8539679775587226,19.71942901611328,0.0,0.0,587.7136579895558,6.743674341399753,44.90665118628187,10.14,0.0,0.0
0.8667375699668008,19.5777587890625,0.0,0.0,587.7136579895558,6.743674341399753,44.90665118628187,10.14,0.0,0.0
0.8796047178818678,19.429325103759766,0.0,0.0,587.7136579895558,6.743674341399753,44.90665118628187,10.14,0.0,0.0
0.8925738087364483,19.276601791381836,0.0,0.0,587.7136579895558,6.743674341399753,44.90665118628187,10.14,0.0,0.0
0.9056489993622773,19.120180130004883,0.0,0.0,587.7136579895558,6.743674341399753,44.90665118628187,10.14,0.0,0.0
0.9188343595403408,18.96042251586914,0.0,0.0,587.7136579895558,6.743674341399753,44.90665118628187,10.14,0.0,0.0
0.9321339284955801,18.7976016998291,0.0,0.0,587.7136579895558,6.743674341399753,44.90665118628187,10.14,0.0,0.0
0.9455517634508459,18.63191795349121,0.0,0.0,587.7136579895558,6.743674341399753,44.90665118628187,10.14,0.0,0.0
0.9590919893533667,18.463502883911133,0.0,0.0,587.7136579895558,6.743674341399753,44.90665118628187,10.14,0.0,0.0
0.9727578839214572,18.293716430664062,0.0,0.0,587.7136579895558,6.743674341399753,44.90665118628187,10.14,0.0,0.0
0.9865504155063672,18.125751495361328,0.0,0.0,587.7136579895558,6.743674341399753,44.90665118628187,10.14,0.0,0.0
1.0004688072117398,17.96184539794922,0.0,0.0,587.7136579895558,6.743674341399753,44.90665118628187,10.14,0.0,0.0
1.0145112267350227,17.803199768066406,0.0,0.0,587.7136579895558,6.743674341399753,44.90665118628187,10.14,0.0,0.0
1.0286757396332105,17.649742126464844,0.0,0.0,587.7136579895558,6.743674341399753,44.90665118628187,10.14,0.0,0.0
1.0429616283072143,17.499786376953125,0.0,0.0,587.7136579895558,6.743674341399753,44.90665118628187,10.14,0.0,0.0
1.0573694924824917,17.351634979248047,0.0,0.0,587.7136579895558,6.743674341399753,44.90665118628187,10.14,0.0,0.0
1.071900521137682,17.20456314086914,0.0,0.0,587.7136579895558,6.743674341399753,44.90665118628187,10.14,0.0,0.0
1.0865562285244617,17.05820083618164,0.0,0.0,587.7136579895558,6.743674341399753,44.90665118628187,10.14,0.0,0.0
1.101338130844047,16.912572860717773,0.0,0.0,587.7136579895558,6.743674341399753,44.90665118628187,10.14,0.0,0.0
1.116247368674782,16.76812744140625,0.0,0.0,587.7136579895558,6.743674341399753,44.90665118628187,10.14,0.0,0.0
1.1312842225728723,16.625818252563477,0.0,0.0,587.7136579895558,6.743674341399753,44.90665118628187,10.14,0.0,0.0
1.1464478026780311,16.48687171936035,0.0,0.0,587.7136579895558,6.743674341399753,44.90665118628187,10.14,0.0,0.0
1.1617363246573227,16.352136611938477,0.0,0.0,587.7136579895558,6.743674341399753,44.90665118628187,10.14,0.0,0.0
1.1771475163015672,16.22197723388672,0.0,0.0,587.7136579895558,6.743674341399753,44.90665118628187,10.14,0.0,0.0
1.1926791922844904,16.09613800048828,0.0,0.0,587.7136579895558,6.743674341399753,44.90665118628187,10.14,0.0,0.0
1.2083299092428408,15.973709106445312,0.0,0.0,587.7136579895558,6.743674341399753,44.90665118628187,10.14,0.0,0.0
1.2240975065608863,15.855300903320312,0.0,0.0,587.7136579895558,6.743674341399753,44.90665118628187,10.14,0.0,0.0
1.239979260004758,15.741334915161133,0.0,0.0,587.7136579895558,6.743674341399753,44.90665118628187,10.14,0.0,0.0
1.2559733237314719,15.630799293518066,0.0,0.0,587.7136579895558,6.743674341399753,44.90665118628187,10.14,0.0,0.0
1.272080638321684,15.520898818969727,0.0,0.0,587.7136579895558,6.743674341399753,44.90665118628187,10.14,0.0,0.0
1.2883069500105473,15.407074928283691,0.0,0.0,587.7136579895558,6.743674341399753,44.90665118628187,10.14,0.0,0.0
1.3046615781206259,15.286192893981934,0.0,0.0,587.7136579895558,6.743674341399753,44.90665118628187,10.14,0.0,0.0
1.321155508102212,15.15709114074707,0.0,0.0,587.7136579895558,6.743674341399753,44.90665118628187,10.14,0.0,0.0
1.3378005988341606,15.01944351196289,0.0,0.0,587.7136579895558,6.743674341399753,44.90665118628187,10.14,0.0,0.0
1.3546089401171482,14.873567581176758,0.0,0.0,587.7136579895558,6.743674341399753,44.90665118628187,10.14,0.0,0.0
1.3715921733336012,14.7204008102417,0.0,0.0,587.7136579895558,6.743674341399753,44.90665118628187,10.14,0.0,0.0
1.3887585907437263,14.563318252563477,0.0,0.0,587.7136579895558,6.743674341399753,44.90665118628187,10.14,0.0,0.0
1.4061131889502598,14.405404090881348,0.0,0.0,587.7136579895558,6.743674341399753,44.90665118628187,10.14,0.0,0.0
1.4236588134706556,14.248566627502441,0.0,0.0,587.7136579895558,6.743674341399753,44.90665118628187,10.14,0.0,0.0
1.4413973935289361,14.093574523925781,0.0,0.0,587.7136579895558,6.743674341399753,44.90665118628187,10.14,0.0,0.0
1.4593304142329335,13.940763473510742,0.0,0.0,587.7136579895558,6.743674341399753,44.90665118628187,10.14,0.0,0.0
1.47745484685918,13.793535232543945,0.0,0.0,587.7136579895558,6.743674341399753,44.90665118628187,10.14,0.0,0.0
1.4957634059764713,13.654815673828125,0.0,0.0,587.7136579895558,6.743674341399753,44.90665118628187,10.14,0.0,0.0
1.514246004544772,13.526236534118652,0.0,0.0,587.7136579895558,6.743674341399753,44.90665118628187,10.14,0.0,0.0
1.5328923585140894,13.40744686126709,0.0,0.0,587.7136579895558,6.743674341399753,44.90665118628187,10.14,0.0,0.0
1.551690500499494,13.299186706542969,0.0,0.0,587.7136579895558,6.743674341399753,44.90665118628187,10.14,0.0,0.0
1.570621306836704,13.205987930297852,0.0,0.0,587.7136579895558,6.743674341399753,44.90665118628187,10.14,0.0,0.0
1.5896595219807943,13.13148307800293,0.0,0.0,587.7136579895558,6.743674341399753,44.90665118628187,10.14,0.0,0.0
1.6087773875044808,13.076773643493652,0.0,0.0,587.7136579895558,6.743674341399753,44.90665118628187,10.14,0.0,0.0
1.6279610429925369,13.031927108764648,0.0,0.0,587.7136579895558,6.743674341399753,44.90665118628187,10.14,0.0,0.0
1.6472006476435563,12.994029998779297,0.0,0.0,587.7136579895558,6.743674341399753,44.90665118628187,10.14,0.0,0.0
1.6664851699723295,12.963764190673828,0.0,0.0,587.7136579895558,6.743674341399753,44.90665118628187,10.14,0.0,0.0
1.6858160945109024,12.932645797729492,0.0,0.0,587.7136579895558,6.743674341399753,44.90665118628187,10.14,0.0,0.0
1.7051470190494753,12.932645797729492,9.925499038197747,0.0,587.713288616144,6.752797422786673,44.72402218188612,10.098768399929588,1698.9923543168666,11.552024020248776
1.7244779435880482,12.932645797729492,194.07749784377475,0.0,587.7057895317533,6.931184907525176,40.47860830739876,9.140262582858464,33221.11903014141,225.88163156863916
1.743806274076074,12.934381484985352,194.05027248760902,0.0,587.6982946973521,7.109547367915872,40.47812455871219,9.140269913201745,33220.91671623145,225.8499447015934
1.7631285739504374,12.9384183883667,193.98695109604333,0.0,587.6908055151187,7.287851626073454,40.47768501391389,9.140287137527617,33220.44133157016,225.77624662016217
1.782442589829626,12.943967819213867,193.89990475124745,0.0,587.6833229040369,7.466075875066263,40.477276270330215,9.140311215417505,33219.77678735732,225.67493569744815
1.801748081426887,12.94968318939209,193.8102555427303,0.0,587.6758469604408,7.644217722456651,40.47687331549292,9.140336497411823,33219.07900529128,225.5705953709617
1.8210560912635543,12.947994232177734,0.0,0.0,587.6758469604408,7.644217722456651,44.90376208089461,10.14,0.0,0.0
1.8403839529013573,12.93469524383545,0.0,0.0,587.6758469604408,7.644217722456651,44.90376208089461,10.14,0.0,0.0
1.8597369564433,12.917891502380371,0.0,0.0,587.6758469604408,7.644217722456651,44.90376208089461,10.14,0.0,0.0
1.8790899599852426,12.917891502380371,9.903494518905873,0.0,587.6754793666612,7.653320578258983,44.72176549930004,10.098908527954045,1693.291732075163,11.52641354621261
1.8984429635271853,12.917891502380371,194.30892833017046,0.0,587.6679873849447,7.8319207837034845,40.475736825405164,9.140202100503855,33222.78829778289,226.15098734889486
1.917792540100191,12.92017936706543,194.27304172058717,0.0,587.6604999888464,8.010488003757663,40.4752617110322,9.140211264674655,33222.53537536656,226.10921987964056
1.9371340347497825,12.925578117370605,194.18835889572216,0.0,587.6530190695657,8.18897738709045,40.47484360275812,9.140233201744637,33221.929930405,226.01065979483494
1.956462681617681,12.93416976928711,194.0535933827018,0.0,587.6455465658566,8.367342899901592,40.4744875247152,9.140269016634713,33220.94146106795,225.85380980295832
1.9757739785245247,12.94579029083252,34.03762259183592,0.0,587.6441055629504,8.398628782850906,44.25485270378922,9.994005499459186,5832.294908045035,39.615482532397486
1.9950606588742694,12.962313652038574,49.492866458834456,0.0,587.6419394155396,8.444120444986808,43.941469638511485,9.923271261273525,8491.351581476894,57.60342930497493
2.014307158247597,12.989375114440918,65.48396955779018,0.0,587.6390571041708,8.504310424504732,43.60303448275432,9.846890985266517,11258.355198079285,76.21504836800533
2.0334976824577495,13.027262687683105,79.83729929095189,0.0,587.635589570566,8.577693352289035,43.28542618295317,9.775223055456323,13766.092949338487,92.92050662354737
2.052618494473728,13.074758529663086,91.93822943987685,0.0,587.631679904654,8.662198921885222,43.00561599622502,9.712097651153968,15910.414803097734,107.0044569830969
